# cmpl = 0.050000 (A); V_1 = -2.000000 (V); V_2 = 0.100000 (V);
# points = 100; delay = 0.001000 (s); speed = 0.240000 (s);
# Voltage (V) |  Current (A)  |  Time (s)
-2.000000E+00   -2.950213E-03   +1.846230E+05
-1.978788E+00   -2.948603E-03   +1.846230E+05
-1.957576E+00   -2.946942E-03   +1.846230E+05
-1.936364E+00   -2.945226E-03   +1.846230E+05
-1.915152E+00   -2.943455E-03   +1.846230E+05
-1.893939E+00   -2.941627E-03   +1.846230E+05
-1.872727E+00   -2.939740E-03   +1.846230E+05
-1.851515E+00   -2.937792E-03   +1.846230E+05
-1.830303E+00   -2.935781E-03   +1.846230E+05
-1.809091E+00   -2.933705E-03   +1.846230E+05
-1.787879E+00   -2.931561E-03   +1.846230E+05
-1.766667E+00   -2.929349E-03   +1.846230E+05
-1.745455E+00   -2.927065E-03   +1.846230E+05
-1.724242E+00   -2.924707E-03   +1.846230E+05
-1.703030E+00   -2.922272E-03   +1.846230E+05
-1.681818E+00   -2.919760E-03   +1.846230E+05
-1.660606E+00   -2.917165E-03   +1.846230E+05
-1.639394E+00   -2.914487E-03   +1.846230E+05
-1.618182E+00   -2.911723E-03   +1.846230E+05
-1.596970E+00   -2.908869E-03   +1.846230E+05
-1.575758E+00   -2.905922E-03   +1.846230E+05
-1.554545E+00   -2.902881E-03   +1.846230E+05
-1.533333E+00   -2.899741E-03   +1.846230E+05
-1.512121E+00   -2.896500E-03   +1.846230E+05
-1.490909E+00   -2.893154E-03   +1.846230E+05
-1.469697E+00   -2.889699E-03   +1.846230E+05
-1.448485E+00   -2.886133E-03   +1.846230E+05
-1.427273E+00   -2.882452E-03   +1.846230E+05
-1.406061E+00   -2.878652E-03   +1.846230E+05
-1.384848E+00   -2.874729E-03   +1.846230E+05
-1.363636E+00   -2.870679E-03   +1.846230E+05
-1.342424E+00   -2.866498E-03   +1.846230E+05
-1.321212E+00   -2.862182E-03   +1.846230E+05
-1.300000E+00   -2.857726E-03   +1.846230E+05
-1.278788E+00   -2.853126E-03   +1.846230E+05
-1.257576E+00   -2.848378E-03   +1.846230E+05
-1.236364E+00   -2.843476E-03   +1.846230E+05
-1.215152E+00   -2.838416E-03   +1.846230E+05
-1.193939E+00   -2.833192E-03   +1.846230E+05
-1.172727E+00   -2.827799E-03   +1.846230E+05
-1.151515E+00   -2.822231E-03   +1.846230E+05
-1.130303E+00   -2.816484E-03   +1.846230E+05
-1.109091E+00   -2.810551E-03   +1.846230E+05
-1.087879E+00   -2.804426E-03   +1.846230E+05
-1.066667E+00   -2.798103E-03   +1.846230E+05
-1.045455E+00   -2.791576E-03   +1.846230E+05
-1.024242E+00   -2.784838E-03   +1.846230E+05
-1.003030E+00   -2.777882E-03   +1.846230E+05
-9.818182E-01   -2.770701E-03   +1.846230E+05
-9.606061E-01   -2.763288E-03   +1.846230E+05
-9.393939E-01   -2.755635E-03   +1.846230E+05
-9.181818E-01   -2.747734E-03   +1.846230E+05
-8.969697E-01   -2.739579E-03   +1.846230E+05
-8.757576E-01   -2.731159E-03   +1.846230E+05
-8.545455E-01   -2.722468E-03   +1.846230E+05
-8.333333E-01   -2.713495E-03   +1.846230E+05
-8.121212E-01   -2.704233E-03   +1.846230E+05
-7.909091E-01   -2.694670E-03   +1.846230E+05
-7.696970E-01   -2.684799E-03   +1.846230E+05
-7.484848E-01   -2.674609E-03   +1.846230E+05
-7.272727E-01   -2.664089E-03   +1.846230E+05
-7.060606E-01   -2.653229E-03   +1.846230E+05
-6.848485E-01   -2.642018E-03   +1.846230E+05
-6.636364E-01   -2.630445E-03   +1.846230E+05
-6.424242E-01   -2.618497E-03   +1.846230E+05
-6.212121E-01   -2.606163E-03   +1.846230E+05
-6.000000E-01   -2.593430E-03   +1.846230E+05
-5.787879E-01   -2.580286E-03   +1.846230E+05
-5.575758E-01   -2.566717E-03   +1.846230E+05
-5.363636E-01   -2.552709E-03   +1.846230E+05
-5.151515E-01   -2.538248E-03   +1.846230E+05
-4.939394E-01   -2.523320E-03   +1.846230E+05
-4.727273E-01   -2.507909E-03   +1.846230E+05
-4.515152E-01   -2.491999E-03   +1.846230E+05
-4.303030E-01   -2.475576E-03   +1.846230E+05
-4.090909E-01   -2.458621E-03   +1.846230E+05
-3.878788E-01   -2.441119E-03   +1.846230E+05
-3.666667E-01   -2.423050E-03   +1.846230E+05
-3.454545E-01   -2.404398E-03   +1.846230E+05
-3.242424E-01   -2.385142E-03   +1.846230E+05
-3.030303E-01   -2.365264E-03   +1.846230E+05
-2.818182E-01   -2.344743E-03   +1.846230E+05
-2.606061E-01   -2.323558E-03   +1.846230E+05
-2.393939E-01   -2.301689E-03   +1.846230E+05
-2.181818E-01   -2.279113E-03   +1.846230E+05
-1.969697E-01   -2.255807E-03   +1.846230E+05
-1.757576E-01   -2.231747E-03   +1.846230E+05
-1.545455E-01   -2.206910E-03   +1.846230E+05
-1.333333E-01   -2.181269E-03   +1.846230E+05
-1.121212E-01   -2.154800E-03   +1.846230E+05
-9.090909E-02   -2.127475E-03   +1.846230E+05
-6.969697E-02   -2.099266E-03   +1.846230E+05
-4.848485E-02   -2.070146E-03   +1.846230E+05
-2.727273E-02   -2.040084E-03   +1.846230E+05
-6.060606E-03   -2.009050E-03   +1.846230E+05
+1.515152E-02   -1.977012E-03   +1.846230E+05
+3.636364E-02   -1.943940E-03   +1.846230E+05
+5.757576E-02   -1.909797E-03   +1.846230E+05
+7.878788E-02   -1.874551E-03   +1.846230E+05
+1.000000E-01   -1.838166E-03   +1.846230E+05
